=== PYTHON ATMOSPHERIC TRANSMISSION ===

Test conditions:
  Zenith angle: 0.0 deg
  Pressure: 1013.25 mbar
  Temperature: 15.0 C
  Ozone: 300 DU
  Water vapor: 1.0 cm
  Aerosol AOD: 0.084
  CO2: 395 ppm

Calculating components...

# Wavelength(nm), Trans_Total, Trans_Ray, Trans_Oz, Trans_Water, Trans_Aer, Trans_UMG
300.0, 0.015196, 0.296375, 0.057701, 1.000000, 0.892145, 0.995996
308.0, 0.117147, 0.337617, 0.388995, 1.000000, 0.893741, 0.998045
316.0, 0.248952, 0.378010, 0.736943, 1.000000, 0.895275, 0.998211
324.0, 0.349999, 0.417124, 0.937499, 1.000000, 0.896751, 0.998066
332.0, 0.399485, 0.454649, 0.980446, 1.000000, 0.898172, 0.997793
340.0, 0.435091, 0.490382, 0.989709, 1.000000, 0.899541, 0.996590
348.0, 0.470053, 0.524201, 0.998594, 1.000000, 0.900862, 0.996785
356.0, 0.499329, 0.556050, 0.999766, 1.000000, 0.902137, 0.995639
364.0, 0.527226, 0.585925, 0.999948, 1.000000, 0.903368, 0.996122
372.0, 0.553120, 0.613859, 0.999980, 1.000000, 0.904559, 0.996144
380.0, 0.575496, 0.639912, 0.999973, 1.000000, 0.905711, 0.992988
388.0, 0.600056, 0.664163, 0.999957, 1.000000, 0.906825, 0.996351
396.0, 0.621159, 0.686701, 0.999936, 1.000000, 0.907906, 0.996374
404.0, 0.641070, 0.707623, 0.999938, 1.000000, 0.908953, 0.996757
412.0, 0.659539, 0.727029, 0.999853, 1.000000, 0.909968, 0.997071
420.0, 0.676167, 0.745018, 0.999771, 1.000000, 0.910953, 0.996531
428.0, 0.691807, 0.761688, 0.999540, 1.000000, 0.911910, 0.996449
436.0, 0.706545, 0.777134, 0.999364, 1.000000, 0.912840, 0.996611
444.0, 0.719676, 0.791445, 0.998642, 0.999674, 0.913744, 0.996836
452.0, 0.732725, 0.804706, 0.998446, 1.000000, 0.914623, 0.997097
460.0, 0.743342, 0.816998, 0.996950, 1.000000, 0.915478, 0.996889
468.0, 0.754128, 0.828395, 0.997034, 0.999951, 0.916310, 0.996498
476.0, 0.758448, 0.838966, 0.995862, 1.000000, 0.917121, 0.989818
484.0, 0.771547, 0.848776, 0.993244, 1.000000, 0.917911, 0.997041
492.0, 0.780496, 0.857885, 0.993026, 0.999987, 0.918681, 0.997291
500.0, 0.786703, 0.866347, 0.990116, 0.999915, 0.919431, 0.997585
508.0, 0.790122, 0.874214, 0.987002, 0.997976, 0.920164, 0.997179
516.0, 0.798155, 0.881531, 0.986245, 1.000000, 0.920878, 0.996925
524.0, 0.801723, 0.888342, 0.983163, 0.999793, 0.921576, 0.996270
532.0, 0.802356, 0.894686, 0.977582, 0.999993, 0.922257, 0.994705
540.0, 0.808092, 0.900599, 0.976627, 0.999401, 0.922923, 0.996083
548.0, 0.810007, 0.906114, 0.973602, 0.999407, 0.923574, 0.994742
556.0, 0.813361, 0.911262, 0.971131, 1.000000, 0.924210, 0.994471
564.0, 0.812345, 0.916070, 0.965521, 0.999957, 0.924832, 0.993130
572.0, 0.805451, 0.920564, 0.961889, 0.997001, 0.925440, 0.985863
580.0, 0.811857, 0.924767, 0.963106, 0.999692, 0.926035, 0.984644
588.0, 0.816004, 0.928702, 0.964661, 0.991081, 0.926618, 0.991817
596.0, 0.817412, 0.932387, 0.961228, 0.990268, 0.927188, 0.993339
604.0, 0.827017, 0.935842, 0.958585, 0.999845, 0.927747, 0.993845
612.0, 0.836581, 0.939082, 0.963630, 1.000000, 0.928294, 0.995883
620.0, 0.840744, 0.942123, 0.968169, 1.000000, 0.928831, 0.992357
628.0, 0.805523, 0.944980, 0.971146, 0.996124, 0.929356, 0.948146
636.0, 0.851215, 0.947665, 0.974660, 0.998714, 0.929872, 0.992356
644.0, 0.862194, 0.950190, 0.978430, 0.998951, 0.930377, 0.997841
652.0, 0.851828, 0.952567, 0.981138, 0.980019, 0.930873, 0.999083
660.0, 0.863807, 0.954805, 0.983634, 0.997075, 0.931359, 0.990431
668.0, 0.877191, 0.956914, 0.986178, 0.999996, 0.931836, 0.997535
676.0, 0.883067, 0.958903, 0.988480, 1.000000, 0.932304, 0.999295
684.0, 0.886201, 0.960779, 0.990016, 0.999362, 0.932764, 0.999475
692.0, 0.847966, 0.962551, 0.991664, 0.993285, 0.933216, 0.958372
700.0, 0.870526, 0.964224, 0.993186, 0.973662, 0.933659, 0.999946
708.0, 0.886762, 0.965806, 0.994117, 0.988778, 0.934095, 0.999977
716.0, 0.885399, 0.967302, 0.994639, 0.984750, 0.934523, 0.999990
724.0, 0.792261, 0.968718, 0.995697, 0.878541, 0.934943, 0.999991
732.0, 0.854535, 0.970058, 0.996484, 0.945220, 0.935357, 0.999889
740.0, 0.898064, 0.971328, 0.996746, 0.991505, 0.935763, 0.999761
748.0, 0.906630, 0.972532, 0.996697, 0.999770, 0.936163, 0.999336
756.0, 0.908095, 0.973673, 0.997653, 1.000000, 0.936556, 0.998171
764.0, 0.531166, 0.974757, 0.997964, 1.000000, 0.936942, 0.582783
772.0, 0.910363, 0.975785, 0.997886, 1.000000, 0.937323, 0.997448
780.0, 0.913270, 0.976762, 0.997346, 0.999955, 0.937697, 0.999820
788.0, 0.906989, 0.977690, 0.998237, 0.990702, 0.938065, 0.999980
796.0, 0.898361, 0.978573, 0.998700, 0.979543, 0.938427, 0.999997
804.0, 0.904612, 0.979412, 0.998821, 0.985020, 0.938784, 0.999997
812.0, 0.891672, 0.980211, 0.998344, 0.970238, 0.939136, 0.999997
820.0, 0.812945, 0.980972, 0.998307, 0.883594, 0.939482, 0.999998
828.0, 0.807038, 0.981697, 0.999146, 0.875473, 0.939822, 0.999997
836.0, 0.891347, 0.982387, 0.999415, 0.965649, 0.940158, 0.999997
844.0, 0.917470, 0.983046, 0.999343, 0.993004, 0.940489, 0.999998
852.0, 0.920852, 0.983674, 0.998789, 0.996234, 0.940814, 0.999998
860.0, 0.925442, 0.984273, 0.999072, 0.999967, 0.941135, 0.999999
868.0, 0.926703, 0.984846, 0.999577, 0.999992, 0.941452, 0.999912
876.0, 0.927512, 0.985392, 0.999712, 0.999756, 0.941764, 0.999999
884.0, 0.927306, 0.985914, 0.999639, 0.998751, 0.942071, 0.999999
892.0, 0.921257, 0.986413, 0.999602, 0.991453, 0.942374, 0.999999
900.0, 0.820517, 0.986891, 0.999481, 0.882436, 0.942673, 0.999999
908.0, 0.765483, 0.987347, 0.999752, 0.822388, 0.942968, 1.000000
916.0, 0.711283, 0.987784, 0.999871, 0.763495, 0.943258, 1.000000
924.0, 0.850297, 0.988202, 0.999891, 0.912032, 0.943545, 1.000000
932.0, 0.473737, 0.988603, 0.999876, 0.507781, 0.943828, 1.000000
940.0, 0.668373, 0.988986, 0.999743, 0.716009, 0.944107, 1.000000
948.0, 0.453306, 0.989354, 0.999731, 0.485298, 0.944383, 1.000000
956.0, 0.526971, 0.989707, 0.999896, 0.563706, 0.944655, 1.000000
964.0, 0.665771, 0.990045, 0.999943, 0.711703, 0.944923, 1.000000
972.0, 0.863116, 0.990369, 0.999983, 0.922065, 0.945188, 1.000000
980.0, 0.810104, 0.990680, 0.999986, 0.864918, 0.945449, 1.000000
988.0, 0.921587, 0.990979, 0.999915, 0.983450, 0.945707, 1.000000
996.0, 0.935272, 0.991266, 0.999859, 0.997552, 0.945962, 1.000000
1004.0, 0.933349, 0.991541, 0.999959, 0.994860, 0.946214, 1.000000
1012.0, 0.934564, 0.991806, 0.999978, 0.995828, 0.946462, 0.999779
1020.0, 0.937255, 0.992061, 0.999985, 0.998548, 0.946708, 0.999403
1028.0, 0.936746, 0.992306, 0.999989, 0.998197, 0.946950, 0.998707
1036.0, 0.937426, 0.992541, 0.999986, 0.999707, 0.947190, 0.997436
1044.0, 0.936204, 0.992768, 0.999970, 1.000000, 0.947427, 0.995384
1052.0, 0.932947, 0.992986, 0.999971, 0.999972, 0.947660, 0.991484
1060.0, 0.928131, 0.993195, 0.999985, 0.999947, 0.947891, 0.985929
1068.0, 0.924926, 0.993397, 0.999986, 0.998471, 0.948120, 0.983539
1076.0, 0.931692, 0.993592, 0.999992, 0.997504, 0.948346, 0.991258
1084.0, 0.911996, 0.993780, 0.999994, 0.972122, 0.948569, 0.995213
1092.0, 0.927478, 0.993960, 1.000000, 0.986019, 0.948789, 0.997423
1100.0, 0.839621, 0.994134, 1.000000, 0.891151, 0.949007, 0.998659

=== SUMMARY ===
Mean total transmission: 0.7740
Min total transmission: 0.0152
Max total transmission: 0.9374

Mean UV transmission (300-400 nm): 0.4163
Mean visible transmission (400-700 nm): 0.7951
Mean NIR transmission (700-1100 nm): 0.8513
